# Lane-Emden solution for 3D geometry, n=1.5
# xi_1 = 3.6537540101e+00
# dtheta_1 = -2.0331244769e-01
# n_points = 366
# Columns: xi  theta  dtheta/dxi
1.0000000000e-10  1.0000000000e+00  0.0000000000e+00
1.0010010110e-02  9.9998330007e-01  -3.3366197501e-03
2.0020020120e-02  9.9993320181e-01  -6.6729389246e-03
3.0030030130e-02  9.9984970972e-01  -1.0008656172e-02
4.0040040140e-02  9.9973283132e-01  -1.3343470932e-02
5.0050050150e-02  9.9958257717e-01  -1.6677082601e-02
6.0060060159e-02  9.9939896082e-01  -2.0009190932e-02
7.0070070169e-02  9.9918199879e-01  -2.3339495604e-02
8.0080080179e-02  9.9893171066e-01  -2.6667696844e-02
9.0090090189e-02  9.9864811899e-01  -2.9993495381e-02
1.0010010020e-01  9.9833124930e-01  -3.3316591596e-02
1.1011011021e-01  9.9798113017e-01  -3.6636687500e-02
1.2012012022e-01  9.9759779311e-01  -3.9953484685e-02
1.3013013023e-01  9.9718127260e-01  -4.3266685187e-02
1.4014014024e-01  9.9673160618e-01  -4.6575992626e-02
1.5015015025e-01  9.9624883430e-01  -4.9881110655e-02
1.6016016026e-01  9.9573300033e-01  -5.3181743056e-02
1.7017017027e-01  9.9518415066e-01  -5.6477595098e-02
1.8018018028e-01  9.9460233467e-01  -5.9768373335e-02
1.9019019029e-01  9.9398760458e-01  -6.3053784140e-02
2.0020020030e-01  9.9334001555e-01  -6.6333534701e-02
2.1021021031e-01  9.9265962571e-01  -6.9607333720e-02
2.2022022032e-01  9.9194649613e-01  -7.2874891365e-02
2.3023023033e-01  9.9120069076e-01  -7.6135918241e-02
2.4024024034e-01  9.9042227635e-01  -7.9390125449e-02
2.5025025035e-01  9.8961132257e-01  -8.2637225635e-02
2.6026026036e-01  9.8876790203e-01  -8.5876933035e-02
2.7027027037e-01  9.8789209023e-01  -8.9108963435e-02
2.8028028038e-01  9.8698396542e-01  -9.2333033305e-02
2.9029029039e-01  9.8604360866e-01  -9.5548859872e-02
3.0030030040e-01  9.8507110382e-01  -9.8756162049e-02
3.1031031041e-01  9.8406653764e-01  -1.0195466048e-01
3.2032032042e-01  9.8302999967e-01  -1.0514407754e-01
3.3033033043e-01  9.8196158228e-01  -1.0832413727e-01
3.4034034044e-01  9.8086138051e-01  -1.1149456452e-01
3.5035035045e-01  9.7972949208e-01  -1.1465508536e-01
3.6036036046e-01  9.7856601748e-01  -1.1780542780e-01
3.7037037047e-01  9.7737105991e-01  -1.2094532176e-01
3.8038038048e-01  9.7614472533e-01  -1.2407449909e-01
3.9039039049e-01  9.7488712243e-01  -1.2719269356e-01
4.0040040050e-01  9.7359836255e-01  -1.3029964089e-01
4.1041041051e-01  9.7227855955e-01  -1.3339507784e-01
4.2042042052e-01  9.7092782995e-01  -1.3647874268e-01
4.3043043053e-01  9.6954629282e-01  -1.3955037588e-01
4.4044044054e-01  9.6813406982e-01  -1.4260972008e-01
4.5045045055e-01  9.6669128523e-01  -1.4565652009e-01
4.6046046056e-01  9.6521806587e-01  -1.4869052294e-01
4.7047047057e-01  9.6371454117e-01  -1.5171147780e-01
4.8048048058e-01  9.6218084315e-01  -1.5471913607e-01
4.9049049059e-01  9.6061710611e-01  -1.5771325102e-01
5.0050050060e-01  9.5902346682e-01  -1.6069357746e-01
5.1051051061e-01  9.5740006451e-01  -1.6365987247e-01
5.2052052062e-01  9.5574704079e-01  -1.6661189560e-01
5.3053053063e-01  9.5406453967e-01  -1.6954940885e-01
5.4054054064e-01  9.5235270752e-01  -1.7247217664e-01
5.5055055065e-01  9.5061169309e-01  -1.7537996588e-01
5.6056056065e-01  9.4884164753e-01  -1.7827254588e-01
5.7057057066e-01  9.4704272434e-01  -1.8114968843e-01
5.8058058067e-01  9.4521507925e-01  -1.8401116770e-01
5.9059059068e-01  9.4335887008e-01  -1.8685675992e-01
6.0060060069e-01  9.4147425701e-01  -1.8968624375e-01
6.1061061070e-01  9.3956140235e-01  -1.9249940055e-01
6.2062062071e-01  9.3762047059e-01  -1.9529601438e-01
6.3063063072e-01  9.3565162832e-01  -1.9807587198e-01
6.4064064073e-01  9.3365504430e-01  -2.0083876279e-01
6.5065065074e-01  9.3163088941e-01  -2.0358447895e-01
6.6066066075e-01  9.2957933668e-01  -2.0631281526e-01
6.7067067076e-01  9.2750056121e-01  -2.0902356926e-01
6.8068068077e-01  9.2539473990e-01  -2.1171654102e-01
6.9069069078e-01  9.2326205179e-01  -2.1439153324e-01
7.0070070079e-01  9.2110267785e-01  -2.1704835150e-01
7.1071071080e-01  9.1891680092e-01  -2.1968680426e-01
7.2072072081e-01  9.1670460573e-01  -2.2230670289e-01
7.3073073082e-01  9.1446627889e-01  -2.2490786164e-01
7.4074074083e-01  9.1220200890e-01  -2.2749009767e-01
7.5075075084e-01  9.0991198613e-01  -2.3005323103e-01
7.6076076085e-01  9.0759640279e-01  -2.3259708466e-01
7.7077077086e-01  9.0525545265e-01  -2.3512148440e-01
7.8078078087e-01  9.0288933138e-01  -2.3762625893e-01
7.9079079088e-01  9.0049823629e-01  -2.4011123997e-01
8.0080080089e-01  8.9808236631e-01  -2.4257626227e-01
8.1081081090e-01  8.9564192199e-01  -2.4502116364e-01
8.2082082091e-01  8.9317710549e-01  -2.4744578494e-01
8.3083083092e-01  8.9068812058e-01  -2.4984997008e-01
8.4084084093e-01  8.8817517264e-01  -2.5223356601e-01
8.5085085094e-01  8.8563846861e-01  -2.5459642274e-01
8.6086086095e-01  8.8307821674e-01  -2.5693839335e-01
8.7087087096e-01  8.8049462690e-01  -2.5925933397e-01
8.8088088097e-01  8.7788791035e-01  -2.6155910388e-01
8.9089089098e-01  8.7525827966e-01  -2.6383756549e-01
9.0090090099e-01  8.7260594875e-01  -2.6609458438e-01
9.1091091100e-01  8.6993113287e-01  -2.6833002928e-01
9.2092092101e-01  8.6723404860e-01  -2.7054377207e-01
9.3093093102e-01  8.6451491385e-01  -2.7273568776e-01
9.4094094103e-01  8.6177394779e-01  -2.7490565456e-01
9.5095095104e-01  8.5901137064e-01  -2.7705355382e-01
9.6096096105e-01  8.5622740398e-01  -2.7917927010e-01
9.7097097106e-01  8.5342227047e-01  -2.8128269115e-01
9.8098098107e-01  8.5059619378e-01  -2.8336370792e-01
9.9099099108e-01  8.4774939868e-01  -2.8542221456e-01
1.0010010011e+00  8.4488211094e-01  -2.8745810844e-01
1.0110110111e+00  8.4199455739e-01  -2.8947129012e-01
1.0210210211e+00  8.3908696592e-01  -2.9146166336e-01
1.0310310311e+00  8.3615956536e-01  -2.9342913512e-01
1.0410410411e+00  8.3321258532e-01  -2.9537361561e-01
1.0510510511e+00  8.3024625650e-01  -2.9729501826e-01
1.0610610612e+00  8.2726081037e-01  -2.9919325973e-01
1.0710710712e+00  8.2425647915e-01  -3.0106825987e-01
1.0810810812e+00  8.2123349581e-01  -3.0291994175e-01
1.0910910912e+00  8.1819209408e-01  -3.0474823162e-01
1.1011011012e+00  8.1513250845e-01  -3.0655305894e-01
1.1111111112e+00  8.1205497414e-01  -3.0833435638e-01
1.1211211212e+00  8.0895972708e-01  -3.1009205979e-01
1.1311311312e+00  8.0584700366e-01  -3.1182610823e-01
1.1411411412e+00  8.0271704108e-01  -3.1353644403e-01
1.1511511512e+00  7.9957007702e-01  -3.1522301269e-01
1.1611611612e+00  7.9640634965e-01  -3.1688576286e-01
1.1711711713e+00  7.9322609757e-01  -3.1852464635e-01
1.1811811813e+00  7.9002955985e-01  -3.2013961810e-01
1.1911911913e+00  7.8681697603e-01  -3.2173063621e-01
1.2012012013e+00  7.8358858608e-01  -3.2329766193e-01
1.2112112113e+00  7.8034463044e-01  -3.2484065964e-01
1.2212212213e+00  7.7708534970e-01  -3.2635959684e-01
1.2312312313e+00  7.7381098494e-01  -3.2785444425e-01
1.2412412413e+00  7.7052177752e-01  -3.2932517572e-01
1.2512512513e+00  7.6721796894e-01  -3.3077176814e-01
1.2612612613e+00  7.6389980092e-01  -3.3219420143e-01
1.2712712714e+00  7.6056751529e-01  -3.3359245857e-01
1.2812812814e+00  7.5722135409e-01  -3.3496652560e-01
1.2912912914e+00  7.5386155950e-01  -3.3631639157e-01
1.3013013014e+00  7.5048837389e-01  -3.3764204862e-01
1.3113113114e+00  7.4710203959e-01  -3.3894349181e-01
1.3213213214e+00  7.4370279899e-01  -3.4022071934e-01
1.3313313314e+00  7.4029089459e-01  -3.4147373244e-01
1.3413413414e+00  7.3686656880e-01  -3.4270253526e-01
1.3513513514e+00  7.3343006389e-01  -3.4390713485e-01
1.3613613614e+00  7.2998162204e-01  -3.4508754115e-01
1.3713713715e+00  7.2652148530e-01  -3.4624376699e-01
1.3813813815e+00  7.2304989561e-01  -3.4737582810e-01
1.3913913915e+00  7.1956709479e-01  -3.4848374310e-01
1.4014014015e+00  7.1607332451e-01  -3.4956753349e-01
1.4114114115e+00  7.1256882602e-01  -3.5062722353e-01
1.4214214215e+00  7.0905384056e-01  -3.5166284052e-01
1.4314314315e+00  7.0552860902e-01  -3.5267441453e-01
1.4414414415e+00  7.0199337190e-01  -3.5366197833e-01
1.4514514515e+00  6.9844836933e-01  -3.5462556738e-01
1.4614614615e+00  6.9489384106e-01  -3.5556521986e-01
1.4714714716e+00  6.9133002642e-01  -3.5648097663e-01
1.4814814816e+00  6.8775716439e-01  -3.5737288125e-01
1.4914914916e+00  6.8417549355e-01  -3.5824098001e-01
1.5015015016e+00  6.8058525196e-01  -3.5908532176e-01
1.5115115116e+00  6.7698667712e-01  -3.5990595802e-01
1.5215215216e+00  6.7338000618e-01  -3.6070294311e-01
1.5315315316e+00  6.6976547564e-01  -3.6147633381e-01
1.5415415416e+00  6.6614332137e-01  -3.6222618939e-01
1.5515515516e+00  6.6251377862e-01  -3.6295257157e-01
1.5615615616e+00  6.5887708197e-01  -3.6365554453e-01
1.5715715717e+00  6.5523346538e-01  -3.6433517495e-01
1.5815815817e+00  6.5158316214e-01  -3.6499153194e-01
1.5915915917e+00  6.4792640495e-01  -3.6562468710e-01
1.6016016017e+00  6.4426342564e-01  -3.6623471430e-01
1.6116116117e+00  6.4059445534e-01  -3.6682168992e-01
1.6216216217e+00  6.3691972452e-01  -3.6738569283e-01
1.6316316317e+00  6.3323946275e-01  -3.6792680409e-01
1.6416416417e+00  6.2955389876e-01  -3.6844510696e-01
1.6516516517e+00  6.2586326038e-01  -3.6894068691e-01
1.6616616617e+00  6.2216777458e-01  -3.6941363160e-01
1.6716716718e+00  6.1846766744e-01  -3.6986403089e-01
1.6816816818e+00  6.1476316420e-01  -3.7029197687e-01
1.6916916918e+00  6.1105448920e-01  -3.7069756377e-01
1.7017017018e+00  6.0734186573e-01  -3.7108088787e-01
1.7117117118e+00  6.0362551615e-01  -3.7144204764e-01
1.7217217218e+00  5.9990566193e-01  -3.7178114377e-01
1.7317317318e+00  5.9618252344e-01  -3.7209827889e-01
1.7417417418e+00  5.9245631997e-01  -3.7239355749e-01
1.7517517518e+00  5.8872726974e-01  -3.7266708600e-01
1.7617617618e+00  5.8499558988e-01  -3.7291897276e-01
1.7717717719e+00  5.8126149643e-01  -3.7314932799e-01
1.7817817819e+00  5.7752520436e-01  -3.7335826384e-01
1.7917917919e+00  5.7378692755e-01  -3.7354589437e-01
1.8018018019e+00  5.7004687869e-01  -3.7371233536e-01
1.8118118119e+00  5.6630526926e-01  -3.7385770440e-01
1.8218218219e+00  5.6256230969e-01  -3.7398212112e-01
1.8318318319e+00  5.5881820913e-01  -3.7408570673e-01
1.8418418419e+00  5.5507317551e-01  -3.7416858407e-01
1.8518518519e+00  5.5132741544e-01  -3.7423087756e-01
1.8618618619e+00  5.4758113431e-01  -3.7427271322e-01
1.8718718720e+00  5.4383453623e-01  -3.7429421866e-01
1.8818818820e+00  5.4008782403e-01  -3.7429552309e-01
1.8918918920e+00  5.3634119930e-01  -3.7427675732e-01
1.9019019020e+00  5.3259486232e-01  -3.7423805369e-01
1.9119119120e+00  5.2884901194e-01  -3.7417954583e-01
1.9219219220e+00  5.2510384578e-01  -3.7410136919e-01
1.9319319320e+00  5.2135956009e-01  -3.7400366060e-01
1.9419419420e+00  5.1761634972e-01  -3.7388655816e-01
1.9519519520e+00  5.1387440807e-01  -3.7375020126e-01
1.9619619620e+00  5.1013392716e-01  -3.7359473055e-01
1.9719719721e+00  5.0639509756e-01  -3.7342028796e-01
1.9819819821e+00  5.0265810845e-01  -3.7322701668e-01
1.9919919921e+00  4.9892314757e-01  -3.7301506120e-01
2.0020020021e+00  4.9519040126e-01  -3.7278456725e-01
2.0120120121e+00  4.9146005437e-01  -3.7253568168e-01
2.0220220221e+00  4.8773229022e-01  -3.7226855243e-01
2.0320320321e+00  4.8400729074e-01  -3.7198332889e-01
2.0420420421e+00  4.8028523634e-01  -3.7168016139e-01
2.0520520521e+00  4.7656630588e-01  -3.7135920124e-01
2.0620620621e+00  4.7285067667e-01  -3.7102060068e-01
2.0720720722e+00  4.6913852452e-01  -3.7066451289e-01
2.0820820822e+00  4.6543002367e-01  -3.7029109203e-01
2.0920920922e+00  4.6172534683e-01  -3.6990049318e-01
2.1021021022e+00  4.5802466518e-01  -3.6949287239e-01
2.1121121122e+00  4.5432814836e-01  -3.6906838664e-01
2.1221221222e+00  4.5063596439e-01  -3.6862719360e-01
2.1321321322e+00  4.4694827970e-01  -3.6816945185e-01
2.1421421422e+00  4.4326525919e-01  -3.6769532100e-01
2.1521521522e+00  4.3958706613e-01  -3.6720496129e-01
2.1621621622e+00  4.3591386217e-01  -3.6669853359e-01
2.1721721723e+00  4.3224580731e-01  -3.6617619941e-01
2.1821821823e+00  4.2858305997e-01  -3.6563812088e-01
2.1921921923e+00  4.2492577690e-01  -3.6508446076e-01
2.2022022023e+00  4.2127411325e-01  -3.6451538246e-01
2.2122122123e+00  4.1762822254e-01  -3.6393104999e-01
2.2222222223e+00  4.1398825666e-01  -3.6333162802e-01
2.2322322323e+00  4.1035436584e-01  -3.6271728163e-01
2.2422422423e+00  4.0672669863e-01  -3.6208817636e-01
2.2522522523e+00  4.0310540195e-01  -3.6144447856e-01
2.2622622623e+00  3.9949062106e-01  -3.6078635493e-01
2.2722722723e+00  3.9588249951e-01  -3.6011397248e-01
2.2822822824e+00  3.9228117919e-01  -3.5942749858e-01
2.2922922924e+00  3.8868680032e-01  -3.5872710088e-01
2.3023023024e+00  3.8509950141e-01  -3.5801294738e-01
2.3123123124e+00  3.8151941931e-01  -3.5728520642e-01
2.3223223224e+00  3.7794668920e-01  -3.5654404664e-01
2.3323323324e+00  3.7438144455e-01  -3.5578963701e-01
2.3423423424e+00  3.7082381716e-01  -3.5502214681e-01
2.3523523524e+00  3.6727393714e-01  -3.5424174526e-01
2.3623623624e+00  3.6373193286e-01  -3.5344860209e-01
2.3723723724e+00  3.6019793103e-01  -3.5264288727e-01
2.3823823825e+00  3.5667205662e-01  -3.5182477081e-01
2.3923923925e+00  3.5315443292e-01  -3.5099442275e-01
2.4024024025e+00  3.4964518152e-01  -3.5015201318e-01
2.4124124125e+00  3.4614442230e-01  -3.4929771224e-01
2.4224224225e+00  3.4265227344e-01  -3.4843169010e-01
2.4324324325e+00  3.3916885142e-01  -3.4755411698e-01
2.4424424425e+00  3.3569427101e-01  -3.4666516316e-01
2.4524524525e+00  3.3222864529e-01  -3.4576499893e-01
2.4624624625e+00  3.2877208564e-01  -3.4485379459e-01
2.4724724725e+00  3.2532470173e-01  -3.4393172013e-01
2.4824824826e+00  3.2188660151e-01  -3.4299894580e-01
2.4924924926e+00  3.1845789120e-01  -3.4205564177e-01
2.5025025026e+00  3.1503867535e-01  -3.4110197797e-01
2.5125125126e+00  3.1162905680e-01  -3.4013812415e-01
2.5225225226e+00  3.0822913672e-01  -3.3916424983e-01
2.5325325326e+00  3.0483901456e-01  -3.3818052435e-01
2.5425425426e+00  3.0145878810e-01  -3.3718711683e-01
2.5525525526e+00  2.9808855341e-01  -3.3618419617e-01
2.5625625626e+00  2.9472840489e-01  -3.3517193108e-01
2.5725725726e+00  2.9137843524e-01  -3.3415049006e-01
2.5825825827e+00  2.8803873545e-01  -3.3312004139e-01
2.5925925927e+00  2.8470939490e-01  -3.3208075284e-01
2.6026026027e+00  2.8139050122e-01  -3.3103279205e-01
2.6126126127e+00  2.7808214033e-01  -3.2997632648e-01
2.6226226227e+00  2.7478439651e-01  -3.2891152315e-01
2.6326326327e+00  2.7149735237e-01  -3.2783854865e-01
2.6426426427e+00  2.6822108889e-01  -3.2675756918e-01
2.6526526527e+00  2.6495568537e-01  -3.2566875051e-01
2.6626626627e+00  2.6170121947e-01  -3.2457225800e-01
2.6726726727e+00  2.5845776719e-01  -3.2346825658e-01
2.6826826828e+00  2.5522540290e-01  -3.2235691080e-01
2.6926926928e+00  2.5200419929e-01  -3.2123838475e-01
2.7027027028e+00  2.4879422741e-01  -3.2011284213e-01
2.7127127128e+00  2.4559555668e-01  -3.1898044617e-01
2.7227227228e+00  2.4240825495e-01  -3.1784135944e-01
2.7327327328e+00  2.3923238833e-01  -3.1669574425e-01
2.7427427428e+00  2.3606802130e-01  -3.1554376236e-01
2.7527527528e+00  2.3291521676e-01  -3.1438557502e-01
2.7627627628e+00  2.2977403601e-01  -3.1322134285e-01
2.7727727728e+00  2.2664453877e-01  -3.1205122594e-01
2.7827827829e+00  2.2352678317e-01  -3.1087538378e-01
2.7927927929e+00  2.2042082575e-01  -3.0969397531e-01
2.8028028029e+00  2.1732672145e-01  -3.0850715889e-01
2.8128128129e+00  2.1424452363e-01  -3.0731509230e-01
2.8228228229e+00  2.1117428407e-01  -3.0611793277e-01
2.8328328329e+00  2.0811605296e-01  -3.0491583695e-01
2.8428428429e+00  2.0506987890e-01  -3.0370896088e-01
2.8528528529e+00  2.0203580906e-01  -3.0249745991e-01
2.8628628629e+00  1.9901388890e-01  -3.0128148884e-01
2.8728728729e+00  1.9600416233e-01  -3.0006120189e-01
2.8828828830e+00  1.9300667173e-01  -2.9883675259e-01
2.8928928930e+00  1.9002145801e-01  -2.9760829383e-01
2.9029029030e+00  1.8704856053e-01  -2.9637597783e-01
2.9129129130e+00  1.8408801718e-01  -2.9513995616e-01
2.9229229230e+00  1.8113986433e-01  -2.9390037973e-01
2.9329329330e+00  1.7820413682e-01  -2.9265739881e-01
2.9429429430e+00  1.7528086802e-01  -2.9141116298e-01
2.9529529530e+00  1.7237008977e-01  -2.9016182120e-01
2.9629629630e+00  1.6947183241e-01  -2.8890952174e-01
2.9729729730e+00  1.6658612476e-01  -2.8765441223e-01
2.9829829831e+00  1.6371299431e-01  -2.8639663967e-01
2.9929929931e+00  1.6085246696e-01  -2.8513635032e-01
3.0030030031e+00  1.5800456709e-01  -2.8387368978e-01
3.0130130131e+00  1.5516931768e-01  -2.8260880300e-01
3.0230230231e+00  1.5234674026e-01  -2.8134183426e-01
3.0330330331e+00  1.4953685496e-01  -2.8007292722e-01
3.0430430431e+00  1.4673968049e-01  -2.7880222486e-01
3.0530530531e+00  1.4395523413e-01  -2.7752986953e-01
3.0630630631e+00  1.4118353174e-01  -2.7625600293e-01
3.0730730731e+00  1.3842458779e-01  -2.7498076609e-01
3.0830830832e+00  1.3567841528e-01  -2.7370429942e-01
3.0930930932e+00  1.3294502583e-01  -2.7242674266e-01
3.1031031032e+00  1.3022442963e-01  -2.7114823489e-01
3.1131131132e+00  1.2751663552e-01  -2.6986891476e-01
3.1231231232e+00  1.2482165098e-01  -2.6858892024e-01
3.1331331332e+00  1.2213948201e-01  -2.6730838852e-01
3.1431431432e+00  1.1947013325e-01  -2.6602745627e-01
3.1531531532e+00  1.1681360801e-01  -2.6474625965e-01
3.1631631632e+00  1.1416990827e-01  -2.6346493435e-01
3.1731731732e+00  1.1153903464e-01  -2.6218361552e-01
3.1831831833e+00  1.0892098640e-01  -2.6090243784e-01
3.1931931933e+00  1.0631576150e-01  -2.5962153546e-01
3.2032032033e+00  1.0372335652e-01  -2.5834104205e-01
3.2132132133e+00  1.0114376673e-01  -2.5706109076e-01
3.2232232233e+00  9.8576986027e-02  -2.5578181425e-01
3.2332332333e+00  9.6023006985e-02  -2.5450334468e-01
3.2432432433e+00  9.3481820869e-02  -2.5322581419e-01
3.2532532533e+00  9.0953417636e-02  -2.5194935450e-01
3.2632632633e+00  8.8437785884e-02  -2.5067409643e-01
3.2732732733e+00  8.5934912910e-02  -2.4940017074e-01
3.2832832834e+00  8.3444784710e-02  -2.4812770808e-01
3.2932932934e+00  8.0967385978e-02  -2.4685683905e-01
3.3033033034e+00  7.8502700106e-02  -2.4558769416e-01
3.3133133134e+00  7.6050709187e-02  -2.4432040385e-01
3.3233233234e+00  7.3611394012e-02  -2.4305509847e-01
3.3333333334e+00  7.1184734068e-02  -2.4179190829e-01
3.3433433434e+00  6.8770707544e-02  -2.4053096351e-01
3.3533533534e+00  6.6369291327e-02  -2.3927239426e-01
3.3633633634e+00  6.3980460999e-02  -2.3801633063e-01
3.3733733734e+00  6.1604190739e-02  -2.3676290474e-01
3.3833833834e+00  5.9240453533e-02  -2.3551224720e-01
3.3933933935e+00  5.6889221084e-02  -2.3426448836e-01
3.4034034035e+00  5.4550463741e-02  -2.3301975980e-01
3.4134134135e+00  5.2224150492e-02  -2.3177819429e-01
3.4234234235e+00  4.9910248968e-02  -2.3053992579e-01
3.4334334335e+00  4.7608725445e-02  -2.2930508949e-01
3.4434434435e+00  4.5319544837e-02  -2.2807382178e-01
3.4534534535e+00  4.3042670702e-02  -2.2684626023e-01
3.4634634635e+00  4.0778065241e-02  -2.2562254363e-01
3.4734734735e+00  3.8525689296e-02  -2.2440281198e-01
3.4834834835e+00  3.6285502351e-02  -2.2318720647e-01
3.4934934936e+00  3.4057462496e-02  -2.2197587004e-01
3.5035035036e+00  3.1841526133e-02  -2.2076895144e-01
3.5135135136e+00  2.9637648362e-02  -2.1956659956e-01
3.5235235236e+00  2.7445782731e-02  -2.1836896745e-01
3.5335335336e+00  2.5265881157e-02  -2.1717621349e-01
3.5435435436e+00  2.3097893918e-02  -2.1598850143e-01
3.5535535536e+00  2.0941769661e-02  -2.1480600036e-01
3.5635635636e+00  1.8797455399e-02  -2.1362888471e-01
3.5735735736e+00  1.6664896414e-02  -2.1245733621e-01
3.5835835836e+00  1.4544035992e-02  -2.1129154776e-01
3.5935935937e+00  1.2434815550e-02  -2.1013172160e-01
3.6036036037e+00  1.0337174215e-02  -2.0897808017e-01
3.6136136137e+00  8.2510487804e-03  -2.0783086683e-01
3.6236236237e+00  6.1763736903e-03  -2.0669034704e-01
3.6336336337e+00  4.1130805134e-03  -2.0555682553e-01
3.6436436437e+00  2.0610973575e-03  -2.0443067745e-01
3.6536536537e+00  2.0347955350e-05  -2.0331244769e-01
